 "GAGE No.    1:  K,I,J Coord. =     1,   61,   10;  STREAM SEGMENT =    30;  REACH =    29 "
     "DATA: Time           Stage            Flow           Depth           Width      Midpt-Flow         Precip.              ET          Runoff     Conductance        HeadDiff       Hyd.Grad."
     1.0000000E+00   8.0568451E+02   2.0042806E+05   1.7746003E-01   2.5000000E+01   1.9957622E+05   0.0000000E+00   0.0000000E+00   0.0000000E+00   2.7295000E+04  -6.2417321E-02  -6.2417321E-02
     2.0000000E+00   8.0569965E+02   2.2967216E+05   1.9261219E-01   2.5000000E+01   2.2877792E+05   0.0000000E+00   0.0000000E+00   0.0000000E+00   2.7295000E+04  -6.5523446E-02  -6.5523446E-02
     3.0000000E+00   8.0571204E+02   2.5465253E+05   2.0500924E-01   2.5000000E+01   2.5372952E+05   0.0000000E+00   0.0000000E+00   0.0000000E+00   2.7295000E+04  -6.7632340E-02  -6.7632340E-02
     4.0000000E+00   8.0571930E+02   2.6970334E+05   2.1225683E-01   2.5000000E+01   2.6877544E+05   0.0000000E+00   0.0000000E+00   0.0000000E+00   2.7295000E+04  -6.7990676E-02  -6.7990676E-02
     5.0000000E+00   8.0572394E+02   2.7931391E+05   2.1691814E-01   2.5000000E+01   2.7838684E+05   0.0000000E+00   0.0000000E+00   0.0000000E+00   2.7295000E+04  -6.7930661E-02  -6.7930661E-02
     6.0000000E+00   8.0572681E+02   2.8568916E+05   2.1975748E-01   2.5000000E+01   2.8476447E+05   0.0000000E+00   0.0000000E+00   0.0000000E+00   2.7295000E+04  -6.7754790E-02  -6.7754790E-02
     7.0000000E+00   8.0572882E+02   2.8986244E+05   2.2179125E-01   2.5000000E+01   2.8894147E+05   0.0000000E+00   0.0000000E+00   0.0000000E+00   2.7295000E+04  -6.7483939E-02  -6.7483939E-02
     8.0000000E+00   8.0572992E+02   2.9251631E+05   2.2288218E-01   2.5000000E+01   2.9159916E+05   0.0000000E+00   0.0000000E+00   0.0000000E+00   2.7295000E+04  -6.7203626E-02  -6.7203626E-02
     9.0000000E+00   8.0573102E+02   2.9411412E+05   2.2400101E-01   2.5000000E+01   2.9320069E+05   0.0000000E+00   0.0000000E+00   0.0000000E+00   2.7295000E+04  -6.6931158E-02  -6.6931158E-02
     1.0000000E+01   8.0573151E+02   2.9399531E+05   2.2449145E-01   2.5000000E+01   2.9308625E+05   0.0000000E+00   0.0000000E+00   0.0000000E+00   2.7295000E+04  -6.6609979E-02  -6.6609979E-02
     1.1000000E+01   8.0573145E+02   2.9566116E+05   2.2439842E-01   2.5000000E+01   2.9475278E+05   0.0000000E+00   0.0000000E+00   0.0000000E+00   2.7295000E+04  -6.6561192E-02  -6.6561192E-02
     1.2000000E+01   8.0573151E+02   2.9507400E+05   2.2449341E-01   2.5000000E+01   2.9416825E+05   0.0000000E+00   0.0000000E+00   0.0000000E+00   2.7295000E+04  -6.6367753E-02  -6.6367753E-02
     1.3000000E+01   8.0573138E+02   2.9284372E+05   2.2437218E-01   2.5000000E+01   2.9194141E+05   0.0000000E+00   0.0000000E+00   0.0000000E+00   2.7295000E+04  -6.6117018E-02  -6.6117018E-02
     1.4000000E+01   8.0573035E+02   2.9347128E+05   2.2330315E-01   2.5000000E+01   2.9256978E+05   0.0000000E+00   0.0000000E+00   0.0000000E+00   2.7295000E+04  -6.6054791E-02  -6.6054791E-02
     1.5000000E+01   8.0573022E+02   2.8996438E+05   2.2323041E-01   2.5000000E+01   2.8906709E+05   0.0000000E+00   0.0000000E+00   0.0000000E+00   2.7295000E+04  -6.5746851E-02  -6.5746851E-02
     1.6000000E+01   8.0572882E+02   2.9025425E+05   2.2178873E-01   2.5000000E+01   2.8935741E+05   0.0000000E+00   0.0000000E+00   0.0000000E+00   2.7295000E+04  -6.5714620E-02  -6.5714620E-02
     1.7000000E+01   8.0572858E+02   2.8788706E+05   2.2155511E-01   2.5000000E+01   2.8699231E+05   0.0000000E+00   0.0000000E+00   0.0000000E+00   2.7295000E+04  -6.5563038E-02  -6.5563038E-02
     1.8000000E+01   8.0572797E+02   2.8532353E+05   2.2092523E-01   2.5000000E+01   2.8443088E+05   0.0000000E+00   0.0000000E+00   0.0000000E+00   2.7295000E+04  -6.5407604E-02  -6.5407604E-02
     1.9000000E+01   8.0572675E+02   2.8391644E+05   2.1972454E-01   2.5000000E+01   2.8302525E+05   0.0000000E+00   0.0000000E+00   0.0000000E+00   2.7295000E+04  -6.5300785E-02  -6.5300785E-02
     2.0000000E+01   8.0572485E+02   2.8176191E+05   2.1785897E-01   2.5000000E+01   2.8087244E+05   0.0000000E+00   0.0000000E+00   0.0000000E+00   2.7295000E+04  -6.5173231E-02  -6.5173231E-02
     2.1000000E+01   8.0572461E+02   2.7777497E+05   2.1760520E-01   2.5000000E+01   2.7688828E+05   0.0000000E+00   0.0000000E+00   0.0000000E+00   2.7295000E+04  -6.4969003E-02  -6.4969003E-02
     2.2000000E+01   8.0572400E+02   2.7555650E+05   2.1696387E-01   2.5000000E+01   2.7467119E+05   0.0000000E+00   0.0000000E+00   0.0000000E+00   2.7295000E+04  -6.4869858E-02  -6.4869858E-02
     2.3000000E+01   8.0572168E+02   2.7488456E+05   2.1463120E-01   2.5000000E+01   2.7400012E+05   0.0000000E+00   0.0000000E+00   0.0000000E+00   2.7295000E+04  -6.4807080E-02  -6.4807080E-02
     2.4000000E+01   8.0572125E+02   2.7049522E+05   2.1422179E-01   2.5000000E+01   2.6961384E+05   0.0000000E+00   0.0000000E+00   0.0000000E+00   2.7295000E+04  -6.4581774E-02  -6.4581774E-02
     2.5000000E+01   8.0571997E+02   2.6884588E+05   2.1295600E-01   2.5000000E+01   2.6796562E+05   0.0000000E+00   0.0000000E+00   0.0000000E+00   2.7295000E+04  -6.4497709E-02  -6.4497709E-02
     2.6000000E+01   8.0571790E+02   2.6684988E+05   2.1087116E-01   2.5000000E+01   2.6597112E+05   0.0000000E+00   0.0000000E+00   0.0000000E+00   2.7295000E+04  -6.4388551E-02  -6.4388551E-02
     2.7000000E+01   8.0571655E+02   2.6388372E+05   2.0955916E-01   2.5000000E+01   2.6300759E+05   0.0000000E+00   0.0000000E+00   0.0000000E+00   2.7295000E+04  -6.4197004E-02  -6.4197004E-02
     2.8000000E+01   8.0571600E+02   2.6032672E+05   2.0897067E-01   2.5000000E+01   2.5945277E+05   0.0000000E+00   0.0000000E+00   0.0000000E+00   2.7295000E+04  -6.4036891E-02  -6.4036891E-02
     2.9000000E+01   8.0571472E+02   2.5820462E+05   2.0769633E-01   2.5000000E+01   2.5733181E+05   0.0000000E+00   0.0000000E+00   0.0000000E+00   2.7295000E+04  -6.3953370E-02  -6.3953370E-02
     3.0000000E+01   8.0571277E+02   2.5624266E+05   2.0577888E-01   2.5000000E+01   2.5537131E+05   0.0000000E+00   0.0000000E+00   0.0000000E+00   2.7295000E+04  -6.3845769E-02  -6.3845769E-02
     3.1000000E+01   8.0571161E+02   2.5334005E+05   2.0458920E-01   2.5000000E+01   2.5247111E+05   0.0000000E+00   0.0000000E+00   0.0000000E+00   2.7295000E+04  -6.3669890E-02  -6.3669890E-02
     3.2000000E+01   8.0571106E+02   2.5259039E+05   2.0402919E-01   2.5000000E+01   2.5172186E+05   0.0000000E+00   0.0000000E+00   0.0000000E+00   2.7295000E+04  -6.3640274E-02  -6.3640274E-02
     3.3000000E+01   8.0571051E+02   2.5158111E+05   2.0350225E-01   2.5000000E+01   2.5071369E+05   0.0000000E+00   0.0000000E+00   0.0000000E+00   2.7295000E+04  -6.3559867E-02  -6.3559867E-02
     3.4000000E+01   8.0571002E+02   2.5052556E+05   2.0297864E-01   2.5000000E+01   2.4965911E+05   0.0000000E+00   0.0000000E+00   0.0000000E+00   2.7295000E+04  -6.3488327E-02  -6.3488327E-02
     3.5000000E+01   8.0570947E+02   2.4941969E+05   2.0244071E-01   2.5000000E+01   2.4855416E+05   0.0000000E+00   0.0000000E+00   0.0000000E+00   2.7295000E+04  -6.3420236E-02  -6.3420236E-02
     3.6000000E+01   8.0570911E+02   2.4835447E+05   2.0206288E-01   2.5000000E+01   2.4748842E+05   0.0000000E+00   0.0000000E+00   0.0000000E+00   2.7295000E+04  -6.3458219E-02  -6.3458219E-02
     3.7000000E+01   8.0570856E+02   2.4709277E+05   2.0151281E-01   2.5000000E+01   2.4622830E+05   0.0000000E+00   0.0000000E+00   0.0000000E+00   2.7295000E+04  -6.3341841E-02  -6.3341841E-02
     3.8000000E+01   8.0570776E+02   2.4576006E+05   2.0076060E-01   2.5000000E+01   2.4489675E+05   0.0000000E+00   0.0000000E+00   0.0000000E+00   2.7295000E+04  -6.3257337E-02  -6.3257337E-02
     3.9000000E+01   8.0570709E+02   2.4443628E+05   2.0004743E-01   2.5000000E+01   2.4357394E+05   0.0000000E+00   0.0000000E+00   0.0000000E+00   2.7295000E+04  -6.3187659E-02  -6.3187659E-02
     4.0000000E+01   8.0570630E+02   2.4299336E+05   1.9929808E-01   2.5000000E+01   2.4213191E+05   0.0000000E+00   0.0000000E+00   0.0000000E+00   2.7295000E+04  -6.3122526E-02  -6.3122526E-02
     4.1000000E+01   8.0570612E+02   2.4105300E+05   1.9907364E-01   2.5000000E+01   2.4019262E+05   0.0000000E+00   0.0000000E+00   0.0000000E+00   2.7295000E+04  -6.3042916E-02  -6.3042916E-02
     4.2000000E+01   8.0570496E+02   2.4028131E+05   1.9795316E-01   2.5000000E+01   2.3942123E+05   0.0000000E+00   0.0000000E+00   0.0000000E+00   2.7295000E+04  -6.3021578E-02  -6.3021578E-02
     4.3000000E+01   8.0570422E+02   2.3865062E+05   1.9717462E-01   2.5000000E+01   2.3779173E+05   0.0000000E+00   0.0000000E+00   0.0000000E+00   2.7295000E+04  -6.2933214E-02  -6.2933214E-02
     4.4000000E+01   8.0570343E+02   2.3713845E+05   1.9638734E-01   2.5000000E+01   2.3628056E+05   0.0000000E+00   0.0000000E+00   0.0000000E+00   2.7295000E+04  -6.2860422E-02  -6.2860422E-02
     4.5000000E+01   8.0570264E+02   2.3564689E+05   1.9564319E-01   2.5000000E+01   2.3479000E+05   0.0000000E+00   0.0000000E+00   0.0000000E+00   2.7295000E+04  -6.2787488E-02  -6.2787488E-02
     4.6000000E+01   8.0570233E+02   2.3378634E+05   1.9530125E-01   2.5000000E+01   2.3293052E+05   0.0000000E+00   0.0000000E+00   0.0000000E+00   2.7295000E+04  -6.2709562E-02  -6.2709562E-02
     4.7000000E+01   8.0570166E+02   2.3254803E+05   1.9466403E-01   2.5000000E+01   2.3169277E+05   0.0000000E+00   0.0000000E+00   0.0000000E+00   2.7295000E+04  -6.2669024E-02  -6.2669024E-02
     4.8000000E+01   8.0570068E+02   2.3167903E+05   1.9364522E-01   2.5000000E+01   2.3082441E+05   0.0000000E+00   0.0000000E+00   0.0000000E+00   2.7295000E+04  -6.2620655E-02  -6.2620655E-02
     4.9000000E+01   8.0569995E+02   2.3024000E+05   1.9292289E-01   2.5000000E+01   2.2938656E+05   0.0000000E+00   0.0000000E+00   0.0000000E+00   2.7295000E+04  -6.2535100E-02  -6.2535100E-02
     5.0000000E+01   8.0569934E+02   2.2892880E+05   1.9230627E-01   2.5000000E+01   2.2807633E+05   0.0000000E+00   0.0000000E+00   0.0000000E+00   2.7295000E+04  -6.2463395E-02  -6.2463395E-02
     5.1000000E+01   8.0569904E+02   2.2707498E+05   1.9199049E-01   2.5000000E+01   2.2622344E+05   0.0000000E+00   0.0000000E+00   0.0000000E+00   2.7295000E+04  -6.2395647E-02  -6.2395647E-02
     5.2000000E+01   8.0569806E+02   2.2649992E+05   1.9102874E-01   2.5000000E+01   2.2564877E+05   0.0000000E+00   0.0000000E+00   0.0000000E+00   2.7295000E+04  -6.2366389E-02  -6.2366389E-02
     5.3000000E+01   8.0569769E+02   2.2453244E+05   1.9067109E-01   2.5000000E+01   2.2368247E+05   0.0000000E+00   0.0000000E+00   0.0000000E+00   2.7295000E+04  -6.2280912E-02  -6.2280912E-02
     5.4000000E+01   8.0569672E+02   2.2390755E+05   1.8970913E-01   2.5000000E+01   2.2305803E+05   0.0000000E+00   0.0000000E+00   0.0000000E+00   2.7295000E+04  -6.2246129E-02  -6.2246129E-02
     5.5000000E+01   8.0569604E+02   2.2251594E+05   1.8899938E-01   2.5000000E+01   2.2166752E+05   0.0000000E+00   0.0000000E+00   0.0000000E+00   2.7295000E+04  -6.2166613E-02  -6.2166613E-02
     5.6000000E+01   8.0569550E+02   2.2122066E+05   1.8846431E-01   2.5000000E+01   2.2037322E+05   0.0000000E+00   0.0000000E+00   0.0000000E+00   2.7295000E+04  -6.2095448E-02  -6.2095448E-02
     5.7000000E+01   8.0569495E+02   2.2006814E+05   1.8794546E-01   2.5000000E+01   2.1922147E+05   0.0000000E+00   0.0000000E+00   0.0000000E+00   2.7295000E+04  -6.2038630E-02  -6.2038630E-02
     5.8000000E+01   8.0569434E+02   2.1924609E+05   1.8732502E-01   2.5000000E+01   2.1840011E+05   0.0000000E+00   0.0000000E+00   0.0000000E+00   2.7295000E+04  -6.1988406E-02  -6.1988406E-02
     5.9000000E+01   8.0569391E+02   2.1837778E+05   1.8687472E-01   2.5000000E+01   2.1753261E+05   0.0000000E+00   0.0000000E+00   0.0000000E+00   2.7295000E+04  -6.1928593E-02  -6.1928593E-02
     6.0000000E+01   8.0569348E+02   2.1762380E+05   1.8648656E-01   2.5000000E+01   2.1677927E+05   0.0000000E+00   0.0000000E+00   0.0000000E+00   2.7295000E+04  -6.1881140E-02  -6.1881140E-02
     6.1000000E+01   8.0569312E+02   2.1688242E+05   1.8610328E-01   2.5000000E+01   2.1603847E+05   0.0000000E+00   0.0000000E+00   0.0000000E+00   2.7295000E+04  -6.1839327E-02  -6.1839327E-02
     6.2000000E+01   8.0569287E+02   2.1584328E+05   1.8586470E-01   2.5000000E+01   2.1500147E+05   0.0000000E+00   0.0000000E+00   0.0000000E+00   2.7295000E+04  -6.1682459E-02  -6.1682459E-02
     6.3000000E+01   8.0569238E+02   2.1533945E+05   1.8534082E-01   2.5000000E+01   2.1449805E+05   0.0000000E+00   0.0000000E+00   0.0000000E+00   2.7295000E+04  -6.1653510E-02  -6.1653510E-02
     6.4000000E+01   8.0569196E+02   2.1455000E+05   1.8493126E-01   2.5000000E+01   2.1370919E+05   0.0000000E+00   0.0000000E+00   0.0000000E+00   2.7295000E+04  -6.1608512E-02  -6.1608512E-02
     6.5000000E+01   8.0569159E+02   2.1371428E+05   1.8459506E-01   2.5000000E+01   2.1287403E+05   0.0000000E+00   0.0000000E+00   0.0000000E+00   2.7295000E+04  -6.1568286E-02  -6.1568286E-02
     6.6000000E+01   8.0569116E+02   2.1292016E+05   1.8414465E-01   2.5000000E+01   2.1208033E+05   0.0000000E+00   0.0000000E+00   0.0000000E+00   2.7295000E+04  -6.1536562E-02  -6.1536562E-02
     6.7000000E+01   8.0569067E+02   2.1212631E+05   1.8364184E-01   2.5000000E+01   2.1128700E+05   0.0000000E+00   0.0000000E+00   0.0000000E+00   2.7295000E+04  -6.1498784E-02  -6.1498784E-02
     6.8000000E+01   8.0569067E+02   2.1205506E+05   1.8365005E-01   2.5000000E+01   2.1121673E+05   0.0000000E+00   0.0000000E+00   0.0000000E+00   2.7295000E+04  -6.1427932E-02  -6.1427932E-02
     6.9000000E+01   8.0569110E+02   2.1280869E+05   1.8405741E-01   2.5000000E+01   2.1197045E+05   0.0000000E+00   0.0000000E+00   0.0000000E+00   2.7295000E+04  -6.1420310E-02  -6.1420310E-02
     7.0000000E+01   8.0569135E+02   2.1327956E+05   1.8433391E-01   2.5000000E+01   2.1244111E+05   0.0000000E+00   0.0000000E+00   0.0000000E+00   2.7295000E+04  -6.1437119E-02  -6.1437119E-02
     7.1000000E+01   8.0569183E+02   2.1437312E+05   1.8482912E-01   2.5000000E+01   2.1353448E+05   0.0000000E+00   0.0000000E+00   0.0000000E+00   2.7295000E+04  -6.1449327E-02  -6.1449327E-02
     7.2000000E+01   8.0569336E+02   2.1731595E+05   1.8633567E-01   2.5000000E+01   2.1647719E+05   0.0000000E+00   0.0000000E+00   0.0000000E+00   2.7295000E+04  -6.1459996E-02  -6.1459996E-02
     7.3000000E+01   8.0569550E+02   2.2143917E+05   1.8845075E-01   2.5000000E+01   2.2059928E+05   0.0000000E+00   0.0000000E+00   0.0000000E+00   2.7295000E+04  -6.1541032E-02  -6.1541032E-02
     7.4000000E+01   8.0569659E+02   2.2364286E+05   1.8959111E-01   2.5000000E+01   2.2280061E+05   0.0000000E+00   0.0000000E+00   0.0000000E+00   2.7295000E+04  -6.1715379E-02  -6.1715379E-02
     7.5000000E+01   8.0569727E+02   2.2463628E+05   1.9025433E-01   2.5000000E+01   2.2379212E+05   0.0000000E+00   0.0000000E+00   0.0000000E+00   2.7295000E+04  -6.1854076E-02  -6.1854076E-02
     7.6000000E+01   8.0569757E+02   2.2458566E+05   1.9057357E-01   2.5000000E+01   2.2374033E+05   0.0000000E+00   0.0000000E+00   0.0000000E+00   2.7295000E+04  -6.1940316E-02  -6.1940316E-02
     7.7000000E+01   8.0569757E+02   2.2429080E+05   1.9054176E-01   2.5000000E+01   2.2344434E+05   0.0000000E+00   0.0000000E+00   0.0000000E+00   2.7295000E+04  -6.2021799E-02  -6.2021799E-02
     7.8000000E+01   8.0569702E+02   2.2425489E+05   1.8998891E-01   2.5000000E+01   2.2340861E+05   0.0000000E+00   0.0000000E+00   0.0000000E+00   2.7295000E+04  -6.2009927E-02  -6.2009927E-02
     7.9000000E+01   8.0569678E+02   2.2334802E+05   1.8973866E-01   2.5000000E+01   2.2250206E+05   0.0000000E+00   0.0000000E+00   0.0000000E+00   2.7295000E+04  -6.1985735E-02  -6.1985735E-02
     8.0000000E+01   8.0569641E+02   2.2224277E+05   1.8937576E-01   2.5000000E+01   2.2139695E+05   0.0000000E+00   0.0000000E+00   0.0000000E+00   2.7295000E+04  -6.1974935E-02  -6.1974935E-02
     8.1000000E+01   8.0569568E+02   2.2124789E+05   1.8864197E-01   2.5000000E+01   2.2040227E+05   0.0000000E+00   0.0000000E+00   0.0000000E+00   2.7295000E+04  -6.1961997E-02  -6.1961997E-02
     8.2000000E+01   8.0569421E+02   2.1878170E+05   1.8721373E-01   2.5000000E+01   2.1793650E+05   0.0000000E+00   0.0000000E+00   0.0000000E+00   2.7295000E+04  -6.1930861E-02  -6.1930861E-02
     8.3000000E+01   8.0569336E+02   2.1670938E+05   1.8636629E-01   2.5000000E+01   2.1586559E+05   0.0000000E+00   0.0000000E+00   0.0000000E+00   2.7295000E+04  -6.1826132E-02  -6.1826132E-02
     8.4000000E+01   8.0569257E+02   2.1555972E+05   1.8557617E-01   2.5000000E+01   2.1471700E+05   0.0000000E+00   0.0000000E+00   0.0000000E+00   2.7295000E+04  -6.1748959E-02  -6.1748959E-02
     8.5000000E+01   8.0569208E+02   2.1452898E+05   1.8507291E-01   2.5000000E+01   2.1368731E+05   0.0000000E+00   0.0000000E+00   0.0000000E+00   2.7295000E+04  -6.1671637E-02  -6.1671637E-02
     8.6000000E+01   8.0569171E+02   2.1389733E+05   1.8466815E-01   2.5000000E+01   2.1305644E+05   0.0000000E+00   0.0000000E+00   0.0000000E+00   2.7295000E+04  -6.1614294E-02  -6.1614294E-02
     8.7000000E+01   8.0569141E+02   2.1355505E+05   1.8441066E-01   2.5000000E+01   2.1271484E+05   0.0000000E+00   0.0000000E+00   0.0000000E+00   2.7295000E+04  -6.1565254E-02  -6.1565254E-02
     8.8000000E+01   8.0569128E+02   2.1300656E+05   1.8423891E-01   2.5000000E+01   2.1216684E+05   0.0000000E+00   0.0000000E+00   0.0000000E+00   2.7295000E+04  -6.1528336E-02  -6.1528336E-02
     8.9000000E+01   8.0569104E+02   2.1246614E+05   1.8403505E-01   2.5000000E+01   2.1162678E+05   0.0000000E+00   0.0000000E+00   0.0000000E+00   2.7295000E+04  -6.1501991E-02  -6.1501991E-02
     9.0000000E+01   8.0569080E+02   2.1177834E+05   1.8375161E-01   2.5000000E+01   2.1093933E+05   0.0000000E+00   0.0000000E+00   0.0000000E+00   2.7295000E+04  -6.1477646E-02  -6.1477646E-02
     9.1000000E+01   8.0569049E+02   2.1113141E+05   1.8345991E-01   2.5000000E+01   2.1029278E+05   0.0000000E+00   0.0000000E+00   0.0000000E+00   2.7295000E+04  -6.1448175E-02  -6.1448175E-02
     9.2000000E+01   8.0569012E+02   2.1078181E+05   1.8307768E-01   2.5000000E+01   2.0994359E+05   0.0000000E+00   0.0000000E+00   0.0000000E+00   2.7295000E+04  -6.1419457E-02  -6.1419457E-02
     9.3000000E+01   8.0568964E+02   2.1018102E+05   1.8264307E-01   2.5000000E+01   2.0934275E+05   0.0000000E+00   0.0000000E+00   0.0000000E+00   2.7295000E+04  -6.1423324E-02  -6.1423324E-02
     9.4000000E+01   8.0568939E+02   2.0952695E+05   1.8236965E-01   2.5000000E+01   2.0868925E+05   0.0000000E+00   0.0000000E+00   0.0000000E+00   2.7295000E+04  -6.1381504E-02  -6.1381504E-02
     9.5000000E+01   8.0568915E+02   2.0943972E+05   1.8209863E-01   2.5000000E+01   2.0860247E+05   0.0000000E+00   0.0000000E+00   0.0000000E+00   2.7295000E+04  -6.1348915E-02  -6.1348915E-02
     9.6000000E+01   8.0568896E+02   2.0946531E+05   1.8193313E-01   2.5000000E+01   2.0862852E+05   0.0000000E+00   0.0000000E+00   0.0000000E+00   2.7295000E+04  -6.1315671E-02  -6.1315671E-02
     9.7000000E+01   8.0568890E+02   2.0947927E+05   1.8190871E-01   2.5000000E+01   2.0864288E+05   0.0000000E+00   0.0000000E+00   0.0000000E+00   2.7295000E+04  -6.1285932E-02  -6.1285932E-02
     9.8000000E+01   8.0568896E+02   2.0970397E+05   1.8192016E-01   2.5000000E+01   2.0886777E+05   0.0000000E+00   0.0000000E+00   0.0000000E+00   2.7295000E+04  -6.1271634E-02  -6.1271634E-02
     9.9000000E+01   8.0568927E+02   2.0981569E+05   1.8227382E-01   2.5000000E+01   2.0897966E+05   0.0000000E+00   0.0000000E+00   0.0000000E+00   2.7295000E+04  -6.1259750E-02  -6.1259750E-02
     1.0000000E+02   8.0568958E+02   2.1187494E+05   1.8255703E-01   2.5000000E+01   2.1103869E+05   0.0000000E+00   0.0000000E+00   0.0000000E+00   2.7295000E+04  -6.1274294E-02  -6.1274294E-02
     1.0100000E+02   8.0569000E+02   2.1611556E+05   1.8295965E-01   2.5000000E+01   2.1527914E+05   0.0000000E+00   0.0000000E+00   0.0000000E+00   2.7295000E+04  -6.1288297E-02  -6.1288297E-02
