 "GAGE No.    4:  K,I,J Coord. =     1,  280,  129;  STREAM SEGMENT =    10;  REACH =     1 "
     "DATA: Time           Stage            Flow           Depth           Width      Midpt-Flow         Precip.              ET          Runoff     Conductance        HeadDiff       Hyd.Grad."
     1.0000000E+00   8.5126050E+02   1.4541109E+05   8.4452607E-02   2.5000000E+01   1.4548797E+05   0.0000000E+00   0.0000000E+00   0.0000000E+00   2.2325000E+03   6.8869039E-02   6.8869039E-02
     2.0000000E+00   8.5126166E+02   1.4884773E+05   8.5643001E-02   2.5000000E+01   1.4892159E+05   0.0000000E+00   0.0000000E+00   0.0000000E+00   2.2325000E+03   6.6164523E-02   6.6164523E-02
     3.0000000E+00   8.5125989E+02   1.4377997E+05   8.3881386E-02   2.5000000E+01   1.4385128E+05   0.0000000E+00   0.0000000E+00   0.0000000E+00   2.2325000E+03   6.3882299E-02   6.3882299E-02
     4.0000000E+00   8.5125781E+02   1.3780733E+05   8.1773497E-02   2.5000000E+01   1.3787711E+05   0.0000000E+00   0.0000000E+00   0.0000000E+00   2.2325000E+03   6.2521033E-02   6.2521033E-02
     5.0000000E+00   8.5125568E+02   1.3197381E+05   7.9679385E-02   2.5000000E+01   1.3204267E+05   0.0000000E+00   0.0000000E+00   0.0000000E+00   2.2325000E+03   6.1696924E-02   6.1696924E-02
     6.0000000E+00   8.5125372E+02   1.2651034E+05   7.7684380E-02   2.5000000E+01   1.2657866E+05   0.0000000E+00   0.0000000E+00   0.0000000E+00   2.2325000E+03   6.1208755E-02   6.1208755E-02
     7.0000000E+00   8.5125183E+02   1.2147209E+05   7.5813979E-02   2.5000000E+01   1.2154012E+05   0.0000000E+00   0.0000000E+00   0.0000000E+00   2.2325000E+03   6.0945336E-02   6.0945336E-02
     8.0000000E+00   8.5125012E+02   1.1685589E+05   7.4072897E-02   2.5000000E+01   1.1692380E+05   0.0000000E+00   0.0000000E+00   0.0000000E+00   2.2325000E+03   6.0839120E-02   6.0839120E-02
     9.0000000E+00   8.5124847E+02   1.1264726E+05   7.2461389E-02   2.5000000E+01   1.1271517E+05   0.0000000E+00   0.0000000E+00   0.0000000E+00   2.2325000E+03   6.0845416E-02   6.0845416E-02
     1.0000000E+01   8.5124701E+02   1.0881200E+05   7.0984863E-02   2.5000000E+01   1.0888002E+05   0.0000000E+00   0.0000000E+00   0.0000000E+00   2.2325000E+03   6.0931779E-02   6.0931779E-02
     1.1000000E+01   8.5124561E+02   1.0530927E+05   6.9592975E-02   2.5000000E+01   1.0537744E+05   0.0000000E+00   0.0000000E+00   0.0000000E+00   2.2325000E+03   6.1072577E-02   6.1072577E-02
     1.2000000E+01   8.5124432E+02   1.0209895E+05   6.8313137E-02   2.5000000E+01   1.0216734E+05   0.0000000E+00   0.0000000E+00   0.0000000E+00   2.2325000E+03   6.1260801E-02   6.1260801E-02
     1.3000000E+01   8.5124316E+02   9.9144766E+04   6.7144737E-02   2.5000000E+01   9.9213391E+04   0.0000000E+00   0.0000000E+00   0.0000000E+00   2.2325000E+03   6.1482083E-02   6.1482083E-02
     1.4000000E+01   8.5124207E+02   9.6428789E+04   6.6012613E-02   2.5000000E+01   9.6497688E+04   0.0000000E+00   0.0000000E+00   0.0000000E+00   2.2325000E+03   6.1723210E-02   6.1723210E-02
     1.5000000E+01   8.5124103E+02   9.3901758E+04   6.4997941E-02   2.5000000E+01   9.3970945E+04   0.0000000E+00   0.0000000E+00   0.0000000E+00   2.2325000E+03   6.1987262E-02   6.1987262E-02
     1.6000000E+01   8.5124005E+02   9.1563859E+04   6.3995436E-02   2.5000000E+01   9.1633359E+04   0.0000000E+00   0.0000000E+00   0.0000000E+00   2.2325000E+03   6.2256936E-02   6.2256936E-02
     1.7000000E+01   8.5123914E+02   8.9462008E+04   6.3112684E-02   2.5000000E+01   8.9531820E+04   0.0000000E+00   0.0000000E+00   0.0000000E+00   2.2325000E+03   6.2542737E-02   6.2542737E-02
     1.8000000E+01   8.5123828E+02   8.7485766E+04   6.2279467E-02   2.5000000E+01   8.7555906E+04   0.0000000E+00   0.0000000E+00   0.0000000E+00   2.2325000E+03   6.2831715E-02   6.2831715E-02
     1.9000000E+01   8.5123749E+02   8.5621781E+04   6.1473459E-02   2.5000000E+01   8.5692250E+04   0.0000000E+00   0.0000000E+00   0.0000000E+00   2.2325000E+03   6.3125938E-02   6.3125938E-02
     2.0000000E+01   8.5123676E+02   8.3859594E+04   6.0711138E-02   2.5000000E+01   8.3930391E+04   0.0000000E+00   0.0000000E+00   0.0000000E+00   2.2325000E+03   6.3428953E-02   6.3428953E-02
     2.1000000E+01   8.5123602E+02   8.2193547E+04   6.0008347E-02   2.5000000E+01   8.2264688E+04   0.0000000E+00   0.0000000E+00   0.0000000E+00   2.2325000E+03   6.3733213E-02   6.3733213E-02
     2.2000000E+01   8.5123535E+02   8.0616102E+04   5.9315041E-02   2.5000000E+01   8.0687578E+04   0.0000000E+00   0.0000000E+00   0.0000000E+00   2.2325000E+03   6.4033777E-02   6.4033777E-02
     2.3000000E+01   8.5123468E+02   7.9116297E+04   5.8629043E-02   2.5000000E+01   7.9188109E+04   0.0000000E+00   0.0000000E+00   0.0000000E+00   2.2325000E+03   6.4333066E-02   6.4333066E-02
     2.4000000E+01   8.5123401E+02   7.7673680E+04   5.8007259E-02   2.5000000E+01   7.7745828E+04   0.0000000E+00   0.0000000E+00   0.0000000E+00   2.2325000E+03   6.4634651E-02   6.4634651E-02
     2.5000000E+01   8.5123340E+02   7.6305297E+04   5.7374191E-02   2.5000000E+01   7.6377773E+04   0.0000000E+00   0.0000000E+00   0.0000000E+00   2.2325000E+03   6.4929418E-02   6.4929418E-02
     2.6000000E+01   8.5123279E+02   7.4987664E+04   5.6775846E-02   2.5000000E+01   7.5060469E+04   0.0000000E+00   0.0000000E+00   0.0000000E+00   2.2325000E+03   6.5224171E-02   6.5224171E-02
     2.7000000E+01   8.5123224E+02   7.3722570E+04   5.6199890E-02   2.5000000E+01   7.3795703E+04   0.0000000E+00   0.0000000E+00   0.0000000E+00   2.2325000E+03   6.5515250E-02   6.5515250E-02
     2.8000000E+01   8.5123169E+02   7.2504500E+04   5.5648986E-02   2.5000000E+01   7.2577953E+04   0.0000000E+00   0.0000000E+00   0.0000000E+00   2.2325000E+03   6.5802895E-02   6.5802895E-02
     2.9000000E+01   8.5123114E+02   7.1334500E+04   5.5104099E-02   2.5000000E+01   7.1408273E+04   0.0000000E+00   0.0000000E+00   0.0000000E+00   2.2325000E+03   6.6085443E-02   6.6085443E-02
     3.0000000E+01   8.5123059E+02   7.0204375E+04   5.4577060E-02   2.5000000E+01   7.0278453E+04   0.0000000E+00   0.0000000E+00   0.0000000E+00   2.2325000E+03   6.6364616E-02   6.6364616E-02
     3.1000000E+01   8.5123010E+02   6.9112648E+04   5.4066941E-02   2.5000000E+01   6.9187039E+04   0.0000000E+00   0.0000000E+00   0.0000000E+00   2.2325000E+03   6.6639587E-02   6.6639587E-02
     3.2000000E+01   8.5122968E+02   6.8242281E+04   5.3657938E-02   2.5000000E+01   6.8316969E+04   0.0000000E+00   0.0000000E+00   0.0000000E+00   2.2325000E+03   6.6904560E-02   6.6904560E-02
     3.3000000E+01   8.5122925E+02   6.7327016E+04   5.3225581E-02   2.5000000E+01   6.7401977E+04   0.0000000E+00   0.0000000E+00   0.0000000E+00   2.2325000E+03   6.7158565E-02   6.7158565E-02
     3.4000000E+01   8.5122882E+02   6.6423039E+04   5.2796252E-02   2.5000000E+01   6.6498281E+04   0.0000000E+00   0.0000000E+00   0.0000000E+00   2.2325000E+03   6.7410238E-02   6.7410238E-02
     3.5000000E+01   8.5122839E+02   6.5539625E+04   5.2374426E-02   2.5000000E+01   6.5615148E+04   0.0000000E+00   0.0000000E+00   0.0000000E+00   2.2325000E+03   6.7658894E-02   6.7658894E-02
     3.6000000E+01   8.5122797E+02   6.4678113E+04   5.1960874E-02   2.5000000E+01   6.4753910E+04   0.0000000E+00   0.0000000E+00   0.0000000E+00   2.2325000E+03   6.7903914E-02   6.7903914E-02
     3.7000000E+01   8.5122760E+02   6.3838137E+04   5.1555555E-02   2.5000000E+01   6.3914203E+04   0.0000000E+00   0.0000000E+00   0.0000000E+00   2.2325000E+03   6.8144880E-02   6.8144880E-02
     3.8000000E+01   8.5122717E+02   6.3018953E+04   5.1158171E-02   2.5000000E+01   6.3095281E+04   0.0000000E+00   0.0000000E+00   0.0000000E+00   2.2325000E+03   6.8381555E-02   6.8381555E-02
     3.9000000E+01   8.5122681E+02   6.2219543E+04   5.0768398E-02   2.5000000E+01   6.2296133E+04   0.0000000E+00   0.0000000E+00   0.0000000E+00   2.2325000E+03   6.8613783E-02   6.8613783E-02
     4.0000000E+01   8.5122644E+02   6.1439188E+04   5.0385989E-02   2.5000000E+01   6.1516031E+04   0.0000000E+00   0.0000000E+00   0.0000000E+00   2.2325000E+03   6.8841219E-02   6.8841219E-02
     4.1000000E+01   8.5122601E+02   6.0675980E+04   5.0014008E-02   2.5000000E+01   6.0753074E+04   0.0000000E+00   0.0000000E+00   0.0000000E+00   2.2325000E+03   6.9064103E-02   6.9064103E-02
     4.2000000E+01   8.5122565E+02   5.9941559E+04   4.9646612E-02   2.5000000E+01   6.0018895E+04   0.0000000E+00   0.0000000E+00   0.0000000E+00   2.2325000E+03   6.9281898E-02   6.9281898E-02
     4.3000000E+01   8.5122534E+02   5.9228742E+04   4.9292110E-02   2.5000000E+01   5.9306316E+04   0.0000000E+00   0.0000000E+00   0.0000000E+00   2.2325000E+03   6.9495499E-02   6.9495499E-02
     4.4000000E+01   8.5122498E+02   5.8532910E+04   4.8944406E-02   2.5000000E+01   5.8610715E+04   0.0000000E+00   0.0000000E+00   0.0000000E+00   2.2325000E+03   6.9704019E-02   6.9704019E-02
     4.5000000E+01   8.5122461E+02   5.7851586E+04   4.8602350E-02   2.5000000E+01   5.7929621E+04   0.0000000E+00   0.0000000E+00   0.0000000E+00   2.2325000E+03   6.9907725E-02   6.9907725E-02
     4.6000000E+01   8.5122430E+02   5.7183535E+04   4.8266873E-02   2.5000000E+01   5.7261789E+04   0.0000000E+00   0.0000000E+00   0.0000000E+00   2.2325000E+03   7.0106857E-02   7.0106857E-02
     4.7000000E+01   8.5122394E+02   5.6528961E+04   4.7935016E-02   2.5000000E+01   5.6607438E+04   0.0000000E+00   0.0000000E+00   0.0000000E+00   2.2325000E+03   7.0301205E-02   7.0301205E-02
     4.8000000E+01   8.5122363E+02   5.5887227E+04   4.7607016E-02   2.5000000E+01   5.5965910E+04   0.0000000E+00   0.0000000E+00   0.0000000E+00   2.2325000E+03   7.0491016E-02   7.0491016E-02
     4.9000000E+01   8.5122333E+02   5.5257516E+04   4.7285002E-02   2.5000000E+01   5.5336406E+04   0.0000000E+00   0.0000000E+00   0.0000000E+00   2.2325000E+03   7.0676535E-02   7.0676535E-02
     5.0000000E+01   8.5122302E+02   5.4640098E+04   4.6967845E-02   2.5000000E+01   5.4719195E+04   0.0000000E+00   0.0000000E+00   0.0000000E+00   2.2325000E+03   7.0857607E-02   7.0857607E-02
     5.1000000E+01   8.5122266E+02   5.4033855E+04   4.6659503E-02   2.5000000E+01   5.4113148E+04   0.0000000E+00   0.0000000E+00   0.0000000E+00   2.2325000E+03   7.1034551E-02   7.1034551E-02
     5.2000000E+01   8.5122235E+02   5.3441570E+04   4.6348069E-02   2.5000000E+01   5.3521055E+04   0.0000000E+00   0.0000000E+00   0.0000000E+00   2.2325000E+03   7.1206361E-02   7.1206361E-02
     5.3000000E+01   8.5122205E+02   5.2858676E+04   4.6049204E-02   2.5000000E+01   5.2938348E+04   0.0000000E+00   0.0000000E+00   0.0000000E+00   2.2325000E+03   7.1374886E-02   7.1374886E-02
     5.4000000E+01   8.5122180E+02   5.2289750E+04   4.5747191E-02   2.5000000E+01   5.2369605E+04   0.0000000E+00   0.0000000E+00   0.0000000E+00   2.2325000E+03   7.1538217E-02   7.1538217E-02
     5.5000000E+01   8.5122150E+02   5.1730871E+04   4.5453731E-02   2.5000000E+01   5.1810906E+04   0.0000000E+00   0.0000000E+00   0.0000000E+00   2.2325000E+03   7.1698129E-02   7.1698129E-02
     5.6000000E+01   8.5122119E+02   5.1183777E+04   4.5165259E-02   2.5000000E+01   5.1263984E+04   0.0000000E+00   0.0000000E+00   0.0000000E+00   2.2325000E+03   7.1853809E-02   7.1853809E-02
     5.7000000E+01   8.5122089E+02   5.0648277E+04   4.4881783E-02   2.5000000E+01   5.0728656E+04   0.0000000E+00   0.0000000E+00   0.0000000E+00   2.2325000E+03   7.2005488E-02   7.2005488E-02
     5.8000000E+01   8.5122064E+02   5.0124324E+04   4.4603027E-02   2.5000000E+01   5.0204863E+04   0.0000000E+00   0.0000000E+00   0.0000000E+00   2.2325000E+03   7.2153240E-02   7.2153240E-02
     5.9000000E+01   8.5122034E+02   4.9611832E+04   4.4329364E-02   2.5000000E+01   4.9692531E+04   0.0000000E+00   0.0000000E+00   0.0000000E+00   2.2325000E+03   7.2297201E-02   7.2297201E-02
     6.0000000E+01   8.5122009E+02   4.9110828E+04   4.4060741E-02   2.5000000E+01   4.9191684E+04   0.0000000E+00   0.0000000E+00   0.0000000E+00   2.2325000E+03   7.2437428E-02   7.2437428E-02
     6.1000000E+01   8.5121985E+02   4.8621281E+04   4.3797214E-02   2.5000000E+01   4.8702289E+04   0.0000000E+00   0.0000000E+00   0.0000000E+00   2.2325000E+03   7.2574012E-02   7.2574012E-02
     6.2000000E+01   8.5121948E+02   4.8019836E+04   4.3473117E-02   2.5000000E+01   4.8100992E+04   0.0000000E+00   0.0000000E+00   0.0000000E+00   2.2325000E+03   7.2703607E-02   7.2703607E-02
     6.3000000E+01   8.5121924E+02   4.7498047E+04   4.3188486E-02   2.5000000E+01   4.7579352E+04   0.0000000E+00   0.0000000E+00   0.0000000E+00   2.2325000E+03   7.2836690E-02   7.2836690E-02
     6.4000000E+01   8.5121893E+02   4.7003113E+04   4.2918444E-02   2.5000000E+01   4.7084559E+04   0.0000000E+00   0.0000000E+00   0.0000000E+00   2.2325000E+03   7.2965838E-02   7.2965838E-02
     6.5000000E+01   8.5121869E+02   4.6525230E+04   4.2656694E-02   2.5000000E+01   4.6606816E+04   0.0000000E+00   0.0000000E+00   0.0000000E+00   2.2325000E+03   7.3091269E-02   7.3091269E-02
     6.6000000E+01   8.5121844E+02   4.6061641E+04   4.2401619E-02   2.5000000E+01   4.6143367E+04   0.0000000E+00   0.0000000E+00   0.0000000E+00   2.2325000E+03   7.3213257E-02   7.3213257E-02
     6.7000000E+01   8.5121820E+02   4.5611312E+04   4.2152915E-02   2.5000000E+01   4.5693172E+04   0.0000000E+00   0.0000000E+00   0.0000000E+00   2.2325000E+03   7.3331952E-02   7.3331952E-02
     6.8000000E+01   8.5121796E+02   4.5173742E+04   4.1912131E-02   2.5000000E+01   4.5255730E+04   0.0000000E+00   0.0000000E+00   0.0000000E+00   2.2325000E+03   7.3447563E-02   7.3447563E-02
     6.9000000E+01   8.5121771E+02   4.4749496E+04   4.1676272E-02   2.5000000E+01   4.4831609E+04   0.0000000E+00   0.0000000E+00   0.0000000E+00   2.2325000E+03   7.3559858E-02   7.3559858E-02
     7.0000000E+01   8.5121747E+02   4.4337578E+04   4.1449342E-02   2.5000000E+01   4.4419812E+04   0.0000000E+00   0.0000000E+00   0.0000000E+00   2.2325000E+03   7.3669352E-02   7.3669352E-02
     7.1000000E+01   8.5121722E+02   4.3940305E+04   4.1223329E-02   2.5000000E+01   4.4022656E+04   0.0000000E+00   0.0000000E+00   0.0000000E+00   2.2325000E+03   7.3775336E-02   7.3775336E-02
     7.2000000E+01   8.5121704E+02   4.3555496E+04   4.1004937E-02   2.5000000E+01   4.3637961E+04   0.0000000E+00   0.0000000E+00   0.0000000E+00   2.2325000E+03   7.3878817E-02   7.3878817E-02
     7.3000000E+01   8.5121680E+02   4.3183910E+04   4.0795084E-02   2.5000000E+01   4.3266492E+04   0.0000000E+00   0.0000000E+00   0.0000000E+00   2.2325000E+03   7.3979549E-02   7.3979549E-02
     7.4000000E+01   8.5121661E+02   4.2826383E+04   4.0592548E-02   2.5000000E+01   4.2909074E+04   0.0000000E+00   0.0000000E+00   0.0000000E+00   2.2325000E+03   7.4077368E-02   7.4077368E-02
     7.5000000E+01   8.5121643E+02   4.2483242E+04   4.0397704E-02   2.5000000E+01   4.2566039E+04   0.0000000E+00   0.0000000E+00   0.0000000E+00   2.2325000E+03   7.4172355E-02   7.4172355E-02
     7.6000000E+01   8.5121625E+02   4.2153391E+04   4.0218633E-02   2.5000000E+01   4.2236289E+04   0.0000000E+00   0.0000000E+00   0.0000000E+00   2.2325000E+03   7.4265040E-02   7.4265040E-02
     7.7000000E+01   8.5121606E+02   4.1842328E+04   4.0039763E-02   2.5000000E+01   4.1925328E+04   0.0000000E+00   0.0000000E+00   0.0000000E+00   2.2325000E+03   7.4353836E-02   7.4353836E-02
     7.8000000E+01   8.5121588E+02   4.1549051E+04   3.9863419E-02   2.5000000E+01   4.1632145E+04   0.0000000E+00   0.0000000E+00   0.0000000E+00   2.2325000E+03   7.4439853E-02   7.4439853E-02
     7.9000000E+01   8.5121576E+02   4.1271906E+04   3.9705969E-02   2.5000000E+01   4.1355094E+04   0.0000000E+00   0.0000000E+00   0.0000000E+00   2.2325000E+03   7.4524261E-02   7.4524261E-02
     8.0000000E+01   8.5121558E+02   4.1016156E+04   3.9560053E-02   2.5000000E+01   4.1099438E+04   0.0000000E+00   0.0000000E+00   0.0000000E+00   2.2325000E+03   7.4605457E-02   7.4605457E-02
     8.1000000E+01   8.5121545E+02   4.0784211E+04   3.9422192E-02   2.5000000E+01   4.0867574E+04   0.0000000E+00   0.0000000E+00   0.0000000E+00   2.2325000E+03   7.4683510E-02   7.4683510E-02
     8.2000000E+01   8.5121533E+02   4.0577254E+04   3.9302256E-02   2.5000000E+01   4.0660707E+04   0.0000000E+00   0.0000000E+00   0.0000000E+00   2.2325000E+03   7.4759573E-02   7.4759573E-02
     8.3000000E+01   8.5121521E+02   4.0398133E+04   3.9194938E-02   2.5000000E+01   4.0481664E+04   0.0000000E+00   0.0000000E+00   0.0000000E+00   2.2325000E+03   7.4832171E-02   7.4832171E-02
     8.4000000E+01   8.5121515E+02   4.0248703E+04   3.9106794E-02   2.5000000E+01   4.0332316E+04   0.0000000E+00   0.0000000E+00   0.0000000E+00   2.2325000E+03   7.4903630E-02   7.4903630E-02
     8.5000000E+01   8.5121503E+02   4.0136457E+04   3.9031383E-02   2.5000000E+01   4.0220145E+04   0.0000000E+00   0.0000000E+00   0.0000000E+00   2.2325000E+03   7.4969672E-02   7.4969672E-02
     8.6000000E+01   8.5121503E+02   4.0053750E+04   3.8983960E-02   2.5000000E+01   4.0137512E+04   0.0000000E+00   0.0000000E+00   0.0000000E+00   2.2325000E+03   7.5038381E-02   7.5038381E-02
     8.7000000E+01   8.5121497E+02   4.0012301E+04   3.8955562E-02   2.5000000E+01   4.0096133E+04   0.0000000E+00   0.0000000E+00   0.0000000E+00   2.2325000E+03   7.5101711E-02   7.5101711E-02
     8.8000000E+01   8.5121497E+02   4.0013344E+04   3.8939189E-02   2.5000000E+01   4.0097242E+04   0.0000000E+00   0.0000000E+00   0.0000000E+00   2.2325000E+03   7.5158603E-02   7.5158603E-02
     8.9000000E+01   8.5121497E+02   4.0051684E+04   3.8951039E-02   2.5000000E+01   4.0135648E+04   0.0000000E+00   0.0000000E+00   0.0000000E+00   2.2325000E+03   7.5220965E-02   7.5220965E-02
     9.0000000E+01   8.5121503E+02   4.0126008E+04   3.8986646E-02   2.5000000E+01   4.0210031E+04   0.0000000E+00   0.0000000E+00   0.0000000E+00   2.2325000E+03   7.5272791E-02   7.5272791E-02
     9.1000000E+01   8.5121503E+02   4.0260855E+04   3.9021652E-02   2.5000000E+01   4.0344934E+04   0.0000000E+00   0.0000000E+00   0.0000000E+00   2.2325000E+03   7.5321123E-02   7.5321123E-02
     9.2000000E+01   8.5121515E+02   4.0401762E+04   3.9123952E-02   2.5000000E+01   4.0485902E+04   0.0000000E+00   0.0000000E+00   0.0000000E+00   2.2325000E+03   7.5378716E-02   7.5378716E-02
     9.3000000E+01   8.5121533E+02   4.0633113E+04   3.9329872E-02   2.5000000E+01   4.0717297E+04   0.0000000E+00   0.0000000E+00   0.0000000E+00   2.2325000E+03   7.5416759E-02   7.5416759E-02
     9.4000000E+01   8.5121545E+02   4.0912750E+04   3.9404746E-02   2.5000000E+01   4.0996996E+04   0.0000000E+00   0.0000000E+00   0.0000000E+00   2.2325000E+03   7.5472891E-02   7.5472891E-02
     9.5000000E+01   8.5121564E+02   4.1318512E+04   3.9587792E-02   2.5000000E+01   4.1402781E+04   0.0000000E+00   0.0000000E+00   0.0000000E+00   2.2325000E+03   7.5491428E-02   7.5491428E-02
     9.6000000E+01   8.5121594E+02   4.1771184E+04   3.9894264E-02   2.5000000E+01   4.1855496E+04   0.0000000E+00   0.0000000E+00   0.0000000E+00   2.2325000E+03   7.5532481E-02   7.5532481E-02
     9.7000000E+01   8.5121625E+02   4.2319012E+04   4.0202927E-02   2.5000000E+01   4.2403355E+04   0.0000000E+00   0.0000000E+00   0.0000000E+00   2.2325000E+03   7.5562470E-02   7.5562470E-02
     9.8000000E+01   8.5121649E+02   4.2952312E+04   4.0472079E-02   2.5000000E+01   4.3036684E+04   0.0000000E+00   0.0000000E+00   0.0000000E+00   2.2325000E+03   7.5585179E-02   7.5585179E-02
     9.9000000E+01   8.5121716E+02   4.3777402E+04   4.1130885E-02   2.5000000E+01   4.3861824E+04   0.0000000E+00   0.0000000E+00   0.0000000E+00   2.2325000E+03   7.5630650E-02   7.5630650E-02
     1.0000000E+02   8.5121796E+02   4.5669207E+04   4.1910376E-02   2.5000000E+01   4.5753652E+04   0.0000000E+00   0.0000000E+00   0.0000000E+00   2.2325000E+03   7.5650230E-02   7.5650230E-02
     1.0100000E+02   8.5122009E+02   5.0908766E+04   4.4090200E-02   2.5000000E+01   5.0993305E+04   0.0000000E+00   0.0000000E+00   0.0000000E+00   2.2325000E+03   7.5734407E-02   7.5734407E-02
